/home/adityars/picaso
node067
Sun Mar 30 23:46:31 PDT 2025
fsed = 3, effective temperature = 1100 K, nstr_upper = 55
Cloudy functionality still in beta form and not ready for public use.
[ 546.66        548.09        549.62        550.74        551.72
  552.92        554.3         555.93        557.83        560.13
  562.8         566.47        569.8         579.09        590.01
  598.1         602.61        605.92        609.74        613.8
  618.16        622.82        627.74        632.92        638.37
  644.09        650.56        657.5         664.24        670.71
  677.03        683.3         689.59        695.99        702.48
  709.28        716.56        724.38        732.82        741.95
  751.78        762.57        774.46        787.39        801.45
  816.52        832.58        849.76        868.39        888.68
  910.75        934.49        960.42        988.91       1020.81
 1058.46       1122.63607389 1190.22759376 1261.25389043 1335.84871815
 1414.02970032 1495.92617071 1581.45349847 1670.74091448 1763.35355196
 1859.40297746 1957.77186231 2058.36588211 2159.83120695 2261.23124258
 2362.64976857 2462.00548168 2559.81678312 2656.23715944 2750.98325407
 2844.22624305 2936.43494723 3028.63835225 3120.64147523 3212.33978937
 3304.65775853 3398.5381552  3493.71400982 3589.98185188 3687.8859598
 3788.80926995 3892.43500543 3998.64816552 4107.35069553 4221.74653806
 4342.20308166]
Iteration number  0 , min , max temp  557.2147559776967 4322.912789969692 , flux balance  18487.819966127427
Traceback (most recent call last):
  File "/home/adityars/picaso/scripts/bdgrid_problempoint.py", line 56, in <module>
    cl_run.climate(opacity_ck, save_all_profiles=True,with_spec=True)
  File "/home/adityars/picaso/picaso/justdoit.py", line 4169, in climate
    if chemeq_first: pressure, temperature, dtdp, profile_flag, all_profiles,opd_cld_climate,g0_cld_climate,w0_cld_climate,cld_out,flux_net_ir_layer, flux_plus_ir_attop, all_opd, all_cld_out, all_nstr_out = profile(mieff_dir,it_max, itmx, conv, convt, nofczns,nstr,x_max_mult,
                                                                                                                                                                                                               ^^^^^^^^^^^^^^^^^^^^^^^^^^^^^^^^^^^^^^^^^^^^^^^^^^^^^^^^^^^^^^^^^^^^^
  File "/home/adityars/picaso/picaso/justdoit.py", line 5235, in profile
    temp, dtdp, flag_converge, flux_net_ir_layer, flux_plus_ir_attop, all_profiles, cldsave_count = t_start(
                                                                                                    ^^^^^^^^
  File "/home/adityars/picaso/picaso/climate.py", line 1023, in t_start
    assert False
AssertionError
Sun Mar 30 23:48:29 PDT 2025
