# ATMO chemical composition profiles
# Chemical abundances given as mole fraction for the 8 most abundant species
# Model Level      Pressure [Ba]    Temperature [K]  H2               He               H2O              CH4              H                CO               N2               NH3             
  1                1.00000000E-05   1.15947115E+02   8.38137652E-01   1.60476046E-01   7.64404251E-04   5.15502030E-04   1.15539792E-93   4.80641611E-06   4.70032696E-05   2.72926986E-05  
  2                8.61574849E-05   1.37959917E+02   8.38137096E-01   1.60475939E-01   7.64402919E-04   5.15501132E-04   1.50393438E-78   4.80640774E-06   4.70031878E-05   2.72926511E-05  
  3                1.75647378E-04   1.52693216E+02   8.38134614E-01   1.60475464E-01   7.64397114E-04   5.15497217E-04   8.85779319E-71   4.80637124E-06   4.70028308E-05   2.72924438E-05  
  4                2.82986245E-04   1.62027935E+02   8.38089258E-01   1.60466780E-01   7.64374417E-04   5.15481911E-04   1.32043150E-66   4.80622853E-06   4.70014352E-05   2.72916335E-05  
  5                4.12696169E-04   1.71992986E+02   8.38137856E-01   1.60476085E-01   7.64278408E-04   5.15417164E-04   1.24052629E-62   4.80562484E-06   4.69955316E-05   2.72882055E-05  
  6                5.70171312E-04   1.77780167E+02   8.38023971E-01   1.60454279E-01   7.64449330E-04   5.15532431E-04   1.47943405E-60   4.80669956E-06   4.70060416E-05   2.72943082E-05  
  7                7.61746547E-04   1.85554762E+02   8.37647896E-01   1.60382273E-01   7.64181095E-04   5.15351537E-04   6.03684441E-58   4.80501295E-06   4.69895478E-05   2.72847310E-05  
  8                9.94942690E-04   1.90330867E+02   8.38136769E-01   1.60475876E-01   7.65007028E-04   5.15908533E-04   1.81036969E-56   4.81020625E-06   4.70403344E-05   2.73142205E-05  
  9                1.27919314E-03   1.97421286E+02   8.38136769E-01   1.60475876E-01   7.65007038E-04   5.15908540E-04   2.21228679E-54   4.81020631E-06   4.70403351E-05   2.73142209E-05  
  10               1.62580508E-03   2.01925850E+02   8.38136769E-01   1.60475876E-01   7.65007047E-04   5.15908546E-04   3.76254696E-53   4.81020637E-06   4.70403357E-05   2.73142212E-05  
  11               2.04858676E-03   2.08910101E+02   8.38136769E-01   1.60475876E-01   7.65007057E-04   5.15908553E-04   2.54142675E-51   4.81020643E-06   4.70403363E-05   2.73142216E-05  
  12               2.56422084E-03   2.13431484E+02   8.38136769E-01   1.60475876E-01   7.65007067E-04   5.15908560E-04   3.21998660E-50   4.81020650E-06   4.70403369E-05   2.73142219E-05  
  13               3.19305671E-03   2.20397377E+02   8.38136769E-01   1.60475876E-01   7.65007077E-04   5.15908567E-04   1.38730402E-48   4.81020656E-06   4.70403375E-05   2.73142223E-05  
  14               3.95979599E-03   2.24990570E+02   8.38136769E-01   1.60475876E-01   7.65007088E-04   5.15908574E-04   1.40506857E-47   4.81020663E-06   4.70403382E-05   2.73142227E-05  
  15               4.89455331E-03   2.31936562E+02   8.38136769E-01   1.60475876E-01   7.65007099E-04   5.15908581E-04   4.11192851E-46   4.81020670E-06   4.70403388E-05   2.73142231E-05  
  16               6.03370070E-03   2.36601673E+02   8.38136769E-01   1.60475876E-01   7.65007111E-04   5.15908589E-04   3.42518167E-45   4.81020677E-06   4.70403396E-05   2.73142235E-05  
  17               7.42167586E-03   2.43740306E+02   8.38136769E-01   1.60475876E-01   7.65007123E-04   5.15908598E-04   7.88299475E-44   4.81020685E-06   4.70403403E-05   2.73142239E-05  
  18               9.11227019E-03   2.48637155E+02   8.38136769E-01   1.60475876E-01   7.65007136E-04   5.15908606E-04   5.89807465E-43   4.81020693E-06   4.70403411E-05   2.73142244E-05  
  19               1.11706841E-02   2.56010446E+02   8.38136769E-01   1.60475876E-01   7.65007149E-04   5.15908615E-04   1.10551620E-41   4.81020701E-06   4.70403419E-05   2.73142248E-05  
  20               1.36753797E-02   2.61275666E+02   8.38136769E-01   1.60475876E-01   7.65007163E-04   5.15908624E-04   7.84930760E-41   4.81020710E-06   4.70403427E-05   2.73142253E-05  
  21               1.67218963E-02   2.69058600E+02   8.38136769E-01   1.60475876E-01   7.65007177E-04   5.15908634E-04   1.28970839E-39   4.81020719E-06   4.70403436E-05   2.73142258E-05  
  22               2.04252258E-02   2.74763899E+02   8.38136769E-01   1.60475876E-01   7.65007192E-04   5.15908644E-04   8.81185774E-39   4.81020728E-06   4.70403446E-05   2.73142264E-05  
  23               2.49246304E-02   2.82888968E+02   8.38136769E-01   1.60475876E-01   7.65007208E-04   5.15908655E-04   1.23411378E-37   4.81020738E-06   4.70403455E-05   2.73142269E-05  
  24               3.03888346E-02   2.88903696E+02   8.38136769E-01   1.60475876E-01   7.65007224E-04   5.15908666E-04   7.69047370E-37   4.81020749E-06   4.70403465E-05   2.73142275E-05  
  25               3.70236039E-02   2.97221314E+02   8.38136769E-01   1.60475876E-01   7.65007242E-04   5.15908677E-04   8.82668443E-36   4.81020759E-06   4.70403476E-05   2.73142281E-05  
  26               4.50762933E-02   3.03494990E+02   8.38136769E-01   1.60475876E-01   7.65007259E-04   5.15908689E-04   4.95439393E-35   4.81020771E-06   4.70403487E-05   2.73142288E-05  
  27               5.48452087E-02   3.12149736E+02   8.38136769E-01   1.60475876E-01   7.65007278E-04   5.15908702E-04   4.93019001E-34   4.81020782E-06   4.70403498E-05   2.73142294E-05  
  28               6.66891819E-02   3.18923374E+02   8.38136769E-01   1.60475876E-01   7.65007299E-04   5.15908716E-04   2.66383616E-33   4.81020796E-06   4.70403512E-05   2.73142302E-05  
  29               8.10413161E-02   3.28172541E+02   8.38136768E-01   1.60475876E-01   7.65007319E-04   5.15908730E-04   2.45535753E-32   4.81020808E-06   4.70403524E-05   2.73142309E-05  
  30               9.84212791E-02   3.35635443E+02   8.38136768E-01   1.60475876E-01   7.65007347E-04   5.15908748E-04   1.31862500E-31   4.81020826E-06   4.70403541E-05   2.73142319E-05  
  31               1.19455271E-01   3.45615203E+02   8.38136767E-01   1.60475876E-01   7.65007368E-04   5.15908762E-04   1.14502150E-30   4.81020839E-06   4.70403554E-05   2.73142326E-05  
  32               1.44898521E-01   3.53860023E+02   8.38136768E-01   1.60475875E-01   7.65007408E-04   5.15908790E-04   6.10387628E-30   4.81020864E-06   4.70403579E-05   2.73142341E-05  
  33               1.75662869E-01   3.64663056E+02   8.38136747E-01   1.60475871E-01   7.65007417E-04   5.15908795E-04   4.99671490E-29   4.81020869E-06   4.70403584E-05   2.73142344E-05  
  34               2.12832139E-01   3.73891079E+02   8.38136749E-01   1.60475869E-01   7.65007789E-04   5.15909046E-04   2.68656199E-28   4.81021103E-06   4.70403812E-05   2.73142477E-05  
  35               2.57701249E-01   3.85842001E+02   8.38136749E-01   1.60475868E-01   7.65007813E-04   5.15909063E-04   2.15321444E-27   4.81021119E-06   4.70403827E-05   2.73142485E-05  
  36               3.11797148E-01   3.96417750E+02   8.38136750E-01   1.60475867E-01   7.65007840E-04   5.15909081E-04   1.20519915E-26   4.81021136E-06   4.70403844E-05   2.73142495E-05  
  37               3.76921432E-01   4.09763280E+02   8.38136752E-01   1.60475865E-01   7.65007864E-04   5.15909097E-04   9.50855158E-26   4.81021151E-06   4.70403859E-05   2.73142504E-05  
  38               4.55185874E-01   4.21842923E+02   8.38136420E-01   1.60475798E-01   7.65007648E-04   5.15908951E-04   5.43867237E-25   4.81021015E-06   4.70403726E-05   2.73142427E-05  
  39               5.49132870E-01   4.36815858E+02   8.38136448E-01   1.60475758E-01   7.65013209E-04   5.15912702E-04   4.20127600E-24   4.81024511E-06   4.70407145E-05   2.73144412E-05  
  40               6.61744352E-01   4.50760494E+02   8.38136435E-01   1.60475747E-01   7.65013271E-04   5.15912744E-04   2.46931658E-23   4.81024551E-06   4.70407183E-05   2.73144434E-05  
  41               7.96468622E-01   4.67814622E+02   8.38136052E-01   1.60475671E-01   7.65013365E-04   5.15912807E-04   1.89398579E-22   4.81024610E-06   4.70407241E-05   2.73144468E-05  
  42               9.57271144E-01   4.84246630E+02   8.38135778E-01   1.60475941E-01   7.65015434E-04   5.15914203E-04   1.16813738E-21   4.81025911E-06   4.70408514E-05   2.73145207E-05  
  43               1.14884161E+00   5.04303401E+02   8.38133102E-01   1.60475365E-01   7.65017312E-04   5.15915469E-04   9.29403702E-21   4.81027092E-06   4.70409668E-05   2.73145877E-05  
  44               1.37653216E+00   5.23508246E+02   8.38133353E-01   1.60475009E-01   7.65076289E-04   5.15955242E-04   5.78438201E-20   4.81064175E-06   4.70445933E-05   2.73166934E-05  
  45               1.64668691E+00   5.45727974E+02   8.38133504E-01   1.60474857E-01   7.65076553E-04   5.15955420E-04   4.11917629E-19   4.81064341E-06   4.70446096E-05   2.73167029E-05  
  46               1.96643136E+00   5.67928131E+02   8.38133732E-01   1.60474630E-01   7.65076107E-04   5.15955119E-04   2.49922105E-18   4.81064061E-06   4.70445822E-05   2.73166870E-05  
  47               2.34440231E+00   5.93191971E+02   8.38134145E-01   1.60474218E-01   7.65075240E-04   5.15954535E-04   1.66071442E-17   4.81063516E-06   4.70445288E-05   2.73166560E-05  
  48               2.78978161E+00   6.18458107E+02   8.38134728E-01   1.60473638E-01   7.65074008E-04   5.15953704E-04   9.40817419E-17   4.81062741E-06   4.70444531E-05   2.73166120E-05  
  49               3.31238328E+00   6.46646552E+02   8.38135662E-01   1.60472707E-01   7.65071975E-04   5.15952332E-04   5.57624432E-16   4.81061462E-06   4.70443280E-05   2.73165394E-05  
  50               3.92385432E+00   6.74731987E+02   8.38136823E-01   1.60471550E-01   7.65069471E-04   5.15950644E-04   2.81825288E-15   4.81059888E-06   4.70441741E-05   2.73164500E-05  
  51               4.63908127E+00   7.05494193E+02   8.38138388E-01   1.60469989E-01   7.65066017E-04   5.15948314E-04   1.43738804E-14   4.81057716E-06   4.70439617E-05   2.73163267E-05  
  52               5.47372764E+00   7.35997405E+02   8.38140031E-01   1.60468342E-01   7.65062433E-04   5.15945897E-04   6.28791370E-14   4.81055462E-06   4.70437413E-05   2.73161987E-05  
  53               6.44395919E+00   7.69052625E+02   8.38141908E-01   1.60466440E-01   7.65058373E-04   5.15943160E-04   2.73229375E-13   4.81052910E-06   4.70434917E-05   2.73160538E-05  
  54               7.56879165E+00   8.01949905E+02   8.38143504E-01   1.60464633E-01   7.65054895E-04   5.15940814E-04   1.04054725E-12   4.81050723E-06   4.70432778E-05   2.73159296E-05  
  55               8.87529970E+00   8.37737050E+02   8.38145140E-01   1.60462731E-01   7.65055644E-04   5.15941319E-04   3.96366497E-12   4.81051195E-06   4.70433238E-05   2.73159563E-05  
  56               1.03919878E+01   8.73858440E+02   8.38146760E-01   1.60461096E-01   7.65057181E-04   5.15942356E-04   1.36280562E-11   4.81052172E-06   4.70434184E-05   2.73160112E-05  
  57               1.21450181E+01   9.13141486E+02   8.38148345E-01   1.60459473E-01   7.65053742E-04   5.15940037E-04   4.68215965E-11   4.81050082E-06   4.70432069E-05   2.73158884E-05  
  58               1.41572401E+01   9.52699877E+02   8.38149577E-01   1.60458096E-01   7.65051171E-04   5.15938303E-04   1.45902889E-10   4.81048988E-06   4.70430488E-05   2.73157966E-05  
  59               1.64590078E+01   9.95044892E+02   8.38150451E-01   1.60456755E-01   7.65050017E-04   5.15937524E-04   4.46167495E-10   4.81051597E-06   4.70429778E-05   2.73157554E-05  
  60               1.90943955E+01   1.03716862E+03   8.38150224E-01   1.60455527E-01   7.65052797E-04   5.15939400E-04   1.23373031E-09   4.81073535E-06   4.70431488E-05   2.73158547E-05  
  61               2.21051861E+01   1.08127720E+03   8.38149517E-01   1.60454414E-01   7.65073988E-04   5.15953689E-04   3.28586400E-09   4.81194992E-06   4.70444518E-05   2.73166113E-05  
  62               2.55318876E+01   1.12408001E+03   8.38150298E-01   1.60453622E-01   7.65071867E-04   5.15952254E-04   7.85560559E-09   4.81727592E-06   4.70443218E-05   2.73165358E-05  
  63               2.94219309E+01   1.16785503E+03   8.38151063E-01   1.60452821E-01   7.65069526E-04   5.15950634E-04   1.79000728E-08   4.83986383E-06   4.70441812E-05   2.73164541E-05  
  64               3.38412543E+01   1.20978551E+03   8.38151719E-01   1.60452057E-01   7.65067341E-04   5.15948850E-04   3.70305268E-08   4.92360687E-06   4.70440712E-05   2.73163902E-05  
  65               3.88797851E+01   1.25242017E+03   8.38152334E-01   1.60451136E-01   7.65063973E-04   5.15944749E-04   7.36019701E-08   5.18433498E-06   4.70440109E-05   2.73163552E-05  
  66               4.46184370E+01   1.29303554E+03   8.38152633E-01   1.60450105E-01   7.65053254E-04   5.15928095E-04   1.34908281E-07   5.85935768E-06   4.70441276E-05   2.73164227E-05  
  67               5.11270675E+01   1.33457318E+03   8.38152594E-01   1.60448716E-01   7.65005087E-04   5.15856124E-04   2.40979515E-07   7.26759568E-06   4.70445242E-05   2.73166518E-05  
  68               5.84639080E+01   1.37447464E+03   8.38152187E-01   1.60447126E-01   7.64812373E-04   5.15585585E-04   4.05031421E-07   9.52069012E-06   4.70452259E-05   2.73170551E-05  
  69               6.67125508E+01   1.41610131E+03   8.38152072E-01   1.60445118E-01   7.64199200E-04   5.14768563E-04   6.75139025E-07   1.27450682E-05   4.70461260E-05   2.73175633E-05  
  70               7.60403106E+01   1.45706856E+03   8.38153282E-01   1.60443135E-01   7.62593400E-04   5.12762211E-04   1.08092875E-06   1.66424725E-05   4.70467622E-05   2.73178865E-05  
  71               8.65871648E+01   1.50097055E+03   8.38156880E-01   1.60440878E-01   7.59217672E-04   5.08825002E-04   1.74258842E-06   2.18246796E-05   4.70470607E-05   2.73178957E-05  
  72               9.84482721E+01   1.54523822E+03   8.38162880E-01   1.60438658E-01   7.53897057E-04   5.03046158E-04   2.73861405E-06   2.79054203E-05   4.70468068E-05   2.73171951E-05  
  73               1.11662924E+02   1.59333938E+03   8.38171066E-01   1.60435709E-01   7.46320909E-04   4.95018940E-04   4.36414909E-06   3.60352166E-05   4.70463956E-05   2.73148947E-05  
  74               1.26201828E+02   1.64249531E+03   8.38163739E-01   1.60429069E-01   7.37507602E-04   4.85308766E-04   6.82936075E-06   4.56708396E-05   4.70455677E-05   2.73080093E-05  
  75               1.42010297E+02   1.69675714E+03   8.38158382E-01   1.60423921E-01   7.44019946E-04   4.70794366E-04   1.09178453E-05   6.01191490E-05   4.70690522E-05   2.73029544E-05  
  76               1.59152739E+02   1.74736403E+03   8.38169493E-01   1.60419242E-01   7.31587747E-04   4.57827865E-04   1.63938928E-05   7.29444017E-05   4.70656853E-05   2.72872877E-05  
  77               1.77725720E+02   1.80061648E+03   8.38180334E-01   1.60413552E-01   7.17238635E-04   4.42611867E-04   2.45754295E-05   8.79762023E-05   4.70512060E-05   2.72754052E-05  
  78               1.97771748E+02   1.85025289E+03   8.38183003E-01   1.60407639E-01   7.05606965E-04   4.28755506E-04   3.49396938E-05   1.01614751E-04   4.69936081E-05   2.73841792E-05  
  79               2.19251570E+02   1.90221852E+03   8.38176287E-01   1.60399985E-01   6.96295275E-04   4.12704445E-04   4.96048494E-05   1.17381887E-04   4.69033483E-05   2.75006827E-05  
  80               2.41808389E+02   1.94954196E+03   8.38147843E-01   1.60390951E-01   6.96652690E-04   3.98030537E-04   6.68775973E-05   1.31744529E-04   4.67291382E-05   2.77946292E-05  
  81               2.64827866E+02   1.99725517E+03   8.38086837E-01   1.60377659E-01   7.10119694E-04   3.80214985E-04   8.92605044E-05   1.49186872E-04   4.65647209E-05   2.80236369E-05  
  82               2.90361700E+02   2.04337704E+03   8.38013283E-01   1.60365415E-01   7.38723648E-04   3.61987295E-04   1.16042620E-04   1.67021870E-04   4.63150421E-05   2.84341039E-05  
  83               3.16394980E+02   2.08995969E+03   8.37998335E-01   1.60358834E-01   7.26447549E-04   3.49238220E-04   1.49748310E-04   1.79306791E-04   4.60887488E-05   2.87696027E-05  
  84               3.41979246E+02   2.13003456E+03   8.37967866E-01   1.60351331E-01   7.17543886E-04   3.39884877E-04   1.84215628E-04   1.88202740E-04   4.58081708E-05   2.92236369E-05  
  85               3.71217729E+02   2.17585770E+03   8.37937905E-01   1.60344225E-01   7.06972902E-04   3.28721509E-04   2.31711797E-04   1.98780663E-04   4.55297219E-05   2.96458168E-05  
  86               3.97729702E+02   2.21229677E+03   8.37906491E-01   1.60338605E-01   7.00141278E-04   3.21363703E-04   2.75380886E-04   2.05620266E-04   4.52294650E-05   3.01335481E-05  
  87               4.20020369E+02   2.24385612E+03   8.37874802E-01   1.60333076E-01   6.93679936E-04   3.14395710E-04   3.18922736E-04   2.12095766E-04   4.50125388E-05   3.04604257E-05  
  88               4.45960953E+02   2.27611025E+03   8.37836234E-01   1.60327540E-01   6.88529707E-04   3.08653775E-04   3.67956214E-04   2.17293769E-04   4.47163125E-05   3.09407568E-05  
  89               4.76032089E+02   2.31424008E+03   8.37749181E-01   1.60313514E-01   6.81834821E-04   3.01277382E-04   4.34267802E-04   2.23945923E-04   4.44093151E-05   3.14064603E-05  
  90               5.11071122E+02   2.35374370E+03   8.37678760E-01   1.60305487E-01   6.80839643E-04   2.94226525E-04   5.11323185E-04   2.30217006E-04   4.40205013E-05   3.20333553E-05  
  91               5.40827454E+02   2.38720879E+03   8.37616695E-01   1.60298072E-01   6.76188354E-04   2.88687694E-04   5.85271033E-04   2.35024593E-04   4.37127958E-05   3.25092041E-05  
  92               5.65177457E+02   2.41202762E+03   8.37565630E-01   1.60292493E-01   6.73521489E-04   2.85330744E-04   6.44406970E-04   2.37802481E-04   4.34428579E-05   3.29429617E-05  
  93               5.94170690E+02   2.44200783E+03   8.37498089E-01   1.60285085E-01   6.69979932E-04   2.80916506E-04   7.22725544E-04   2.41475214E-04   4.31440833E-05   3.34055800E-05  
  94               6.28559306E+02   2.47440632E+03   8.37417593E-01   1.60276847E-01   6.67072483E-04   2.77016165E-04   8.14136671E-04   2.44518201E-04   4.27720192E-05   3.39999478E-05  
  95               6.69179216E+02   2.51217233E+03   8.37313189E-01   1.60266270E-01   6.63599695E-04   2.72317371E-04   9.32355729E-04   2.48144283E-04   4.23546529E-05   3.46505058E-05  
  96               7.16970626E+02   2.55276040E+03   8.37188121E-01   1.60254241E-01   6.60882524E-04   2.68191748E-04   1.07187252E-03   2.51020970E-04   4.18531983E-05   3.54480954E-05  
  97               7.72984507E+02   2.59848520E+03   8.37029756E-01   1.60239256E-01   6.58056248E-04   2.63659723E-04   1.24773182E-03   2.54025777E-04   4.12879093E-05   3.63344337E-05  
  98               8.38357232E+02   2.64732269E+03   8.36839917E-01   1.60221915E-01   6.56090071E-04   2.59714807E-04   1.45649735E-03   2.56186842E-04   4.06306452E-05   3.73763310E-05  
  99               9.14312583E+02   2.70043412E+03   8.36607253E-01   1.60201037E-01   6.54589111E-04   2.55864296E-04   1.71111685E-03   2.57913647E-04   3.98912017E-05   3.85427232E-05  
  100              1.00208380E+03   2.75685242E+03   8.36329226E-01   1.60176579E-01   6.53957150E-04   2.52487017E-04   2.01375092E-03   2.58812534E-04   3.90594259E-05   3.98575682E-05  
  101              1.10298640E+03   2.81592721E+03   8.36003023E-01   1.60148384E-01   6.54403772E-04   2.49756795E-04   2.36714762E-03   2.58688572E-04   3.81312451E-05   4.13313176E-05  
